
 Transpose Dense Matrix/Dense Vector Multiplication:
   Blaze [MFlop/s]:
     1           0.127906
     2           0.695933
     3           2.13966
     4           3.61721
     5           6.29786
     6           9.29678
     7           12.7145
     8           16.8591
     9           20.3362
     10          24.9432
     11          28.0937
     12          33.359
     13          42.6928
     14          51.043
     15          58.4129
     16          66.6513
     17          70.8065
     18          69.3918
     19          89.3539
     20          96.2951
     22          129.285
     24          155.159
     26          186.161
     28          189.775
     30          228.022
     33          254.808
     36          301.602
     39          364.165
     42          470.552
     46          573.89
     50          645.673
     55          826.273
     60          919.486
     66          1028.43
     72          1356.28
     79          1382.16
     86          1883.6
     94          2234.62
     103         2555.84
     113         2798.32
     124         3560.05
     136         4354.49
     149         5717.55
     163         6683.1
     179         7802.93
     196         9193.3
     215         9987.69
     236         12423.2
     259         13451.9
     284         15767.7
     312         18444.1
     343         8298.38
     377         18148.1
     414         11714.4
     455         10485.4
     500         12501.5
     550         17312.7
     605         11779.2
     665         15229
     731         16295.7
     804         15235.2
     884         16440.2
     972         16489.7
     1069        18433.3
 Blaze kernel 'tdmatdvecmult': Time deviation too large!!!
     1175        22516.4
     1292        19161.4
     1421        18798.6
     1563        19469.3
     1719        21876.6
     1890        19063.3
     2079        13559.5
     2286        9921.35
     2514        8317.11
     2765        7790.88
     3041        7598.43
     3345        7575.44
     3679        7661.65
     4046        7750.4
     4450        7696.17
     4895        7799.22
     5384        7851.33
     5922        7893.91
     6514        7939.82
     7165        7980.04
     7881        7969.26
     8669        7952.28
     9535        8106.54
     10000       8139.61
   N=1, steps=253270
     Blaze       = 1        (1.98012)
   N=2, steps=233144
     Blaze       = 1        (2.01006)
   N=3, steps=284554
     Blaze       = 1        (1.99486)
   N=4, steps=284674
     Blaze       = 1        (2.2036)
   N=5, steps=268847
     Blaze       = 1        (1.92099)
   N=6, steps=216875
     Blaze       = 1        (1.53965)
   N=7, steps=277970
     Blaze       = 1        (1.98948)
   N=8, steps=277829
     Blaze       = 1        (1.97753)
   N=9, steps=269251
     Blaze       = 1        (2.02572)
   N=10, steps=264387
     Blaze       = 1        (2.01391)
   N=11, steps=270063
     Blaze       = 1        (2.22059)
   N=12, steps=259571
     Blaze       = 1        (2.14759)
   N=13, steps=261263
     Blaze       = 1        (1.98887)
   N=14, steps=262489
     Blaze       = 1        (1.94387)
   N=15, steps=259229
     Blaze       = 1        (1.93047)
   N=16, steps=254937
     Blaze       = 1        (1.89717)
   N=17, steps=233032
     Blaze       = 1        (1.84631)
   N=18, steps=218187
     Blaze       = 1        (1.98089)
   N=19, steps=256317
     Blaze       = 1        (2.0166)
   N=20, steps=248110
     Blaze       = 1        (2.00972)
   N=22, steps=225046
     Blaze       = 1        (1.6467)
   N=24, steps=225285
     Blaze       = 1        (1.63781)
   N=26, steps=262149
     Blaze       = 1        (1.86726)
   N=28, steps=244073
     Blaze       = 1        (1.98063)
   N=30, steps=251734
     Blaze       = 1        (1.95406)
   N=33, steps=275315
     Blaze       = 1        (2.31763)
   N=36, steps=266035
     Blaze       = 1        (2.25458)
   N=39, steps=273290
     Blaze       = 1        (2.25362)
   N=42, steps=259593
     Blaze       = 1        (1.92315)
   N=46, steps=271012
     Blaze       = 1        (1.97678)
   N=50, steps=262382
     Blaze       = 1        (2.01153)
   N=55, steps=278536
     Blaze       = 1        (2.02091)
   N=60, steps=261391
     Blaze       = 1        (2.02975)
   N=66, steps=271116
     Blaze       = 1        (2.27927)
   N=72, steps=221942
     Blaze       = 1        (1.68484)
   N=79, steps=251123
     Blaze       = 1        (2.25349)
   N=86, steps=208787
     Blaze       = 1        (1.63008)
   N=94, steps=244513
     Blaze       = 1        (1.92339)
   N=103, steps=207738
     Blaze       = 1        (1.71622)
   N=113, steps=208729
     Blaze       = 1        (1.89647)
   N=124, steps=213019
     Blaze       = 1        (1.83266)
   N=136, steps=211041
     Blaze       = 1        (1.78623)
   N=149, steps=193091
     Blaze       = 1        (1.4945)
   N=163, steps=225709
     Blaze       = 1        (1.78913)
   N=179, steps=230655
     Blaze       = 1        (1.88898)
   N=196, steps=227900
     Blaze       = 1        (1.89979)
   N=215, steps=234711
     Blaze       = 1        (2.16753)
   N=236, steps=222732
     Blaze       = 1        (1.99289)
   N=259, steps=199233
     Blaze       = 1        (1.98321)
   N=284, steps=188275
     Blaze       = 1        (1.92276)
   N=312, steps=172924
     Blaze       = 1        (1.82238)
   N=343, steps=82663
     Blaze       = 1        (2.34047)
   N=377, steps=64610
     Blaze       = 1        (1.01066)
   N=414, steps=68410
     Blaze       = 1        (1.99942)
   N=455, steps=50760
     Blaze       = 1        (2.00223)
   N=500, steps=47430
     Blaze       = 1        (1.89507)
   N=550, steps=39696
     Blaze       = 1        (1.38593)
   N=605, steps=47054
     Blaze       = 1        (2.92189)
   N=665, steps=35550
     Blaze       = 1        (2.06308)
   N=731, steps=32884
     Blaze       = 1        (2.15516)
   N=804, steps=26632
     Blaze       = 1        (2.25853)
   N=884, steps=23429
     Blaze       = 1        (2.22605)
   N=972, steps=19023
     Blaze       = 1        (2.17873)
   N=1069, steps=18271
     Blaze       = 1        (2.26434)
   N=1175, steps=17573
     Blaze       = 1        (2.15411)
   N=1292, steps=12146
     Blaze       = 1        (2.11541)
   N=1421, steps=12150
     Blaze       = 1        (2.60925)
   N=1563, steps=8551
     Blaze       = 1        (2.14524)
   N=1719, steps=8099
     Blaze       = 1        (2.1873)
   N=1890, steps=5308
     Blaze       = 1        (1.98871)
   N=2079, steps=3141
     Blaze       = 1        (2.00197)
   N=2286, steps=1920
     Blaze       = 1        (2.02217)
   N=2514, steps=1306
     Blaze       = 1        (1.98447)
   N=2765, steps=1014
     Blaze       = 1        (1.98973)
   N=3041, steps=819
     Blaze       = 1        (1.9932)
   N=3345, steps=677
     Blaze       = 1        (1.99958)
   N=3679, steps=567
     Blaze       = 1        (2.00305)
   N=4046, steps=473
     Blaze       = 1        (1.99786)
   N=4450, steps=391
     Blaze       = 1        (2.01188)
   N=4895, steps=324
     Blaze       = 1        (1.9906)
   N=5384, steps=271
     Blaze       = 1        (2.0009)
   N=5922, steps=223
     Blaze       = 1        (1.98127)
   N=6514, steps=185
     Blaze       = 1        (1.97721)
   N=7165, steps=154
     Blaze       = 1        (1.98129)
   N=7881, steps=126
     Blaze       = 1        (1.96389)
   N=8669, steps=105
     Blaze       = 1        (1.98445)
   N=9535, steps=89
     Blaze       = 1        (1.9962)
   N=10000, steps=81
     Blaze       = 1        (1.99017)
