
 Dense Matrix/Dense Vector Multiplication:
   Blaze [MFlop/s]:
     1           0.120352
     2           0.686063
     3           1.89897
     4           3.38637
     5           6.26835
     6           9.12799
     7           12.6644
     8           16.4713
     9           21.1256
     10          24.8079
     11          31.7343
     12          32.9208
     13          42.3836
     14          48.9928
     15          56.3531
     16          67.0754
     17          72.202
     18          81.1781
     19          87.1451
     20          97.605
     22          129.794
     24          152.835
     26          193.913
     28          196.188
     30          232.99
     33          257.739
     36          306.887
     39          362.676
     42          467.573
     46          571.172
     50          671.174
     55          791.715
     60          940.099
     66          1165.14
     72          1381.13
     79          1628.44
     86          1595.5
     94          2099.79
     103         2324.39
     113         2587.48
     124         3343.75
     136         4001.51
     149         5219.76
     163         6765.62
     179         7589.59
     196         9208.85
     215         10283.9
     236         11252
     259         11552.6
     284         13771.4
     312         14914.8
     343         17530.8
     377         15749.2
     414         15398.4
     455         23838.6
     500         26176.9
     550         27791.5
     605         29208.8
     665         31879.8
     731         33230
     804         29336.9
     884         30498.2
     972         37227.7
     1069        37406.2
     1175        37355.5
     1292        36687.5
     1421        38622.7
     1563        39425.6
     1719        36880
     1890        30626.4
     2079        21875.1
     2286        13831.1
     2514        10230.5
     2765        9094.94
     3041        8815.74
     3345        8800.09
     3679        8762.5
     4046        8701.54
     4450        8584.5
     4895        8513.12
     5384        8477.66
     5922        8504.35
     6514        8507.19
     7165        8418.01
     7881        8456.06
     8669        8460.2
     9535        8500.84
     10000       8497.97
   N=1, steps=254618
     Blaze       = 1        (2.11561)
   N=2, steps=230339
     Blaze       = 1        (2.01444)
   N=3, steps=279260
     Blaze       = 1        (2.20588)
   N=4, steps=280575
     Blaze       = 1        (2.31992)
   N=5, steps=269903
     Blaze       = 1        (1.93761)
   N=6, steps=219343
     Blaze       = 1        (1.58596)
   N=7, steps=274117
     Blaze       = 1        (1.96967)
   N=8, steps=278302
     Blaze       = 1        (2.02754)
   N=9, steps=272911
     Blaze       = 1        (1.97653)
   N=10, steps=257739
     Blaze       = 1        (1.97398)
   N=11, steps=252138
     Blaze       = 1        (1.83536)
   N=12, steps=254162
     Blaze       = 1        (2.13083)
   N=13, steps=255539
     Blaze       = 1        (1.95949)
   N=14, steps=263456
     Blaze       = 1        (2.03267)
   N=15, steps=255589
     Blaze       = 1        (1.97294)
   N=16, steps=269329
     Blaze       = 1        (1.9916)
   N=17, steps=236587
     Blaze       = 1        (1.83825)
   N=18, steps=221812
     Blaze       = 1        (1.72142)
   N=19, steps=252119
     Blaze       = 1        (2.03385)
   N=20, steps=227688
     Blaze       = 1        (1.81954)
   N=22, steps=237201
     Blaze       = 1        (1.72884)
   N=24, steps=238764
     Blaze       = 1        (1.7622)
   N=26, steps=261085
     Blaze       = 1        (1.78533)
   N=28, steps=257086
     Blaze       = 1        (2.01802)
   N=30, steps=259554
     Blaze       = 1        (1.97181)
   N=33, steps=276629
     Blaze       = 1        (2.30221)
   N=36, steps=266599
     Blaze       = 1        (2.22045)
   N=39, steps=275194
     Blaze       = 1        (2.27864)
   N=42, steps=266779
     Blaze       = 1        (1.98898)
   N=46, steps=275757
     Blaze       = 1        (2.02097)
   N=50, steps=267602
     Blaze       = 1        (1.9736)
   N=55, steps=269127
     Blaze       = 1        (2.03788)
   N=60, steps=257056
     Blaze       = 1        (1.95233)
   N=66, steps=270215
     Blaze       = 1        (2.00515)
   N=72, steps=225511
     Blaze       = 1        (1.68114)
   N=79, steps=249340
     Blaze       = 1        (1.89909)
   N=86, steps=196395
     Blaze       = 1        (1.8102)
   N=94, steps=226838
     Blaze       = 1        (1.89893)
   N=103, steps=194687
     Blaze       = 1        (1.76856)
   N=113, steps=189599
     Blaze       = 1        (1.86303)
   N=124, steps=198449
     Blaze       = 1        (1.81775)
   N=136, steps=203010
     Blaze       = 1        (1.86983)
   N=149, steps=181814
     Blaze       = 1        (1.54142)
   N=163, steps=234721
     Blaze       = 1        (1.83787)
   N=179, steps=240147
     Blaze       = 1        (2.02199)
   N=196, steps=219753
     Blaze       = 1        (1.82878)
   N=215, steps=233341
     Blaze       = 1        (2.0928)
   N=236, steps=202552
     Blaze       = 1        (2.00097)
   N=259, steps=171959
     Blaze       = 1        (1.99312)
   N=284, steps=164582
     Blaze       = 1        (1.92444)
   N=312, steps=151367
     Blaze       = 1        (1.97268)
   N=343, steps=101003
     Blaze       = 1        (1.35368)
   N=377, steps=142531
     Blaze       = 1        (2.56913)
   N=414, steps=116804
     Blaze       = 1        (2.5971)
   N=455, steps=83308
     Blaze       = 1        (1.44538)
   N=500, steps=92285
     Blaze       = 1        (1.76096)
   N=550, steps=92773
     Blaze       = 1        (2.01776)
   N=605, steps=81390
     Blaze       = 1        (2.03816)
   N=665, steps=74486
     Blaze       = 1        (2.06493)
   N=731, steps=63779
     Blaze       = 1        (2.04982)
   N=804, steps=48079
     Blaze       = 1        (2.11745)
   N=884, steps=45683
     Blaze       = 1        (2.33975)
   N=972, steps=40756
     Blaze       = 1        (2.06759)
   N=1069, steps=33509
     Blaze       = 1        (2.04644)
   N=1175, steps=27426
     Blaze       = 1        (2.02642)
   N=1292, steps=23303
     Blaze       = 1        (2.11973)
   N=1421, steps=19617
     Blaze       = 1        (2.05048)
   N=1563, steps=16491
     Blaze       = 1        (2.04304)
   N=1719, steps=13426
     Blaze       = 1        (2.15085)
   N=1890, steps=9021
     Blaze       = 1        (2.10376)
   N=2079, steps=5162
     Blaze       = 1        (2.0394)
   N=2286, steps=2628
     Blaze       = 1        (1.98544)
   N=2514, steps=1610
     Blaze       = 1        (1.98885)
   N=2765, steps=1195
     Blaze       = 1        (2.00868)
   N=3041, steps=952
     Blaze       = 1        (1.99696)
   N=3345, steps=787
     Blaze       = 1        (2.00099)
   N=3679, steps=646
     Blaze       = 1        (1.99542)
   N=4046, steps=525
     Blaze       = 1        (1.97511)
   N=4450, steps=431
     Blaze       = 1        (1.98821)
   N=4895, steps=355
     Blaze       = 1        (1.99816)
   N=5384, steps=292
     Blaze       = 1        (1.99667)
   N=5922, steps=241
     Blaze       = 1        (1.9875)
   N=6514, steps=200
     Blaze       = 1        (1.99497)
   N=7165, steps=164
     Blaze       = 1        (2.00017)
   N=7881, steps=136
     Blaze       = 1        (1.99773)
   N=8669, steps=112
     Blaze       = 1        (1.98967)
   N=9535, steps=93
     Blaze       = 1        (1.98916)
   N=10000, steps=84
     Blaze       = 1        (1.97684)
